! Created Wed Mar 13 13:02:46 2024 1 Port Network Data from SP1.SP block (frequencies are in Hz)
0                 0                  0
10000000                 0     9.96560534e-27
20000000                 0     8.07948152e-23
30000000                 0      1.5451875e-20
40000000                 0       6.344619e-19
50000000                 0     1.11712025e-17
60000000    2.22044605e-16     1.14744806e-16
70000000     4.4408921e-16     8.09877579e-16
80000000    3.33066907e-15     4.32889825e-15
90000000    1.73194792e-14     1.86444328e-14
100000000    7.39408534e-14     6.74457595e-14
110000000    2.73114864e-13     2.10832911e-13
120000000    8.98614516e-13     5.80622678e-13
130000000    2.67208478e-12     1.42596462e-12
140000000    7.28950234e-12     3.13996894e-12
150000000    1.84545712e-11     6.18046743e-12
160000000    4.37503367e-11      1.0683818e-11
170000000    9.78466197e-11     1.53658663e-11
180000000     2.0769142e-10     1.49640247e-11
190000000    4.20499413e-10    -5.05625089e-12
200000000    8.15421286e-10     -7.8591703e-11
210000000    1.51969348e-09    -2.76953558e-10
220000000    2.72969691e-09    -7.39531672e-10
230000000    4.73649386e-09    -1.72362723e-09
240000000    7.95383603e-09    -3.68234631e-09
250000000    1.29440463e-08    -7.38215908e-09
260000000     2.0433192e-08    -1.40746806e-08
270000000    3.13011879e-08    -2.57401631e-08
280000000     4.6524447e-08     -4.5422695e-08
290000000    6.70379694e-08    -7.76785751e-08
300000000    9.34699329e-08    -1.29158935e-07
310000000    1.25684591e-07    -2.09344313e-07
320000000    1.62048477e-07    -3.31441157e-07
330000000    1.98310678e-07    -5.13436401e-07
340000000    2.25960841e-07    -7.79284375e-07
350000000     2.2989961e-07    -1.16016799e-06
360000000    1.85227186e-07    -1.69573098e-06
370000000    5.29291346e-08    -2.43511711e-06
380000000   -2.25781851e-07    -3.43757368e-06
390000000   -7.36719159e-07    -4.77227693e-06
400000000   -1.60181393e-06    -6.51691563e-06
410000000   -2.99025681e-06    -8.75442408e-06
420000000   -5.13183593e-06     -1.1567088e-05
430000000   -8.33250733e-06    -1.50270585e-05
440000000   -1.29920684e-05    -1.91821042e-05
450000000   -1.96235691e-05    -2.40352196e-05
460000000   -2.88737767e-05    -2.95164963e-05
470000000   -4.15435936e-05    -3.54454745e-05
480000000   -5.86067978e-05    -4.14820409e-05
490000000   -8.12248248e-05    -4.70638571e-05
500000000   -0.000110754524    -5.13283232e-05
510000000   -0.000148744897    -5.30172476e-05
520000000   -0.000196917779    -5.03627508e-05
530000000   -0.000257126219    -4.09535461e-05
540000000   -0.000331283071    -2.15816645e-05
550000000   -0.000421250924     1.19289875e-05
560000000   -0.000528683196     6.49090674e-05
570000000   -0.000654804928     0.000144039733
580000000   -0.000800120739     0.000257549615
590000000    -0.00096403668     0.000415400726
600000000    -0.00114438245     0.000629446752
610000000    -0.00133682095      0.00091354199
620000000    -0.00153413357       0.0012835731
630000000    -0.00172537251        0.001757379
640000000    -0.00189487555      0.00235451664
650000000    -0.00202114563      0.00309582221
660000000     -0.0020756062      0.00400270877
670000000    -0.00202125568      0.00509613285
680000000    -0.00181126008      0.00639515428
690000000    -0.00138754269       0.0079150068
700000000   -0.000679454967      0.00966459179
710000000    0.000397356928       0.0116433058
720000000     0.00194173819       0.0138371149
730000000      0.0040672683       0.0162137999
740000000     0.00690171291       0.0187173114
750000000      0.0105853759       0.0212612099
760000000      0.0152679733       0.0237212101
770000000      0.0211035718       0.0259269243
780000000      0.0282430478       0.0276530016
790000000      0.0368234317       0.0286100109
800000000      0.0469534125       0.0284356256
810000000       0.058694206       0.0266869575
820000000      0.0720349559       0.0228352926
830000000       0.086861897       0.0162650213
840000000       0.102920726      0.00627927159
850000000       0.119772136     -0.00788434476
860000000       0.136741451      -0.0270233963
870000000       0.152865013      -0.0519201216
880000000       0.166838753      -0.0832643102
890000000       0.176978527       -0.121543158
900000000       0.181207432       -0.166893622
910000000       0.177091916       -0.218918252
920000000       0.161954299        -0.27647629
930000000       0.133090594       -0.337479353
940000000       0.088113139       -0.398744092
950000000      0.0254107504         -0.4559765
960000000     -0.0553282291       -0.503970405
970000000      -0.152643995       -0.537077472
980000000      -0.263043835         -0.5499351
990000000       -0.38110371       -0.538332599
1e+09      -0.500000009       -0.499999996
1.01e+09      -0.612391974       -0.435080322
1.02e+09      -0.711435539       -0.346130761
1.03e+09      -0.791656698       -0.237659942
1.04e+09      -0.849478026       -0.115363573
1.05e+09      -0.883332944       0.0147092803
1.06e+09       -0.89343837        0.146859347
1.07e+09      -0.881369261        0.276203276
1.08e+09      -0.849579695         0.39889224
1.09e+09      -0.800972575        0.512134067
1.1e+09      -0.738567564        0.614090912
1.11e+09      -0.665275911        0.703717547
1.12e+09      -0.583767616        0.780586544
1.13e+09      -0.496407833        0.844727221
1.14e+09      -0.405239786        0.896490418
1.15e+09      -0.311995809        0.936441718
1.16e+09      -0.218123311        0.965280836
1.17e+09      -0.124817019        0.983782809
1.18e+09     -0.0330522728        0.992756334
1.19e+09       0.056383463        0.993015016
1.2e+09       0.142862211        0.985358077
1.21e+09       0.225890656        0.970557831
1.22e+09       0.305088824        0.949351916
1.23e+09       0.380171975        0.922438823
1.24e+09       0.450935297        0.890475687
1.25e+09       0.517241024        0.854077582
1.26e+09       0.579007566        0.813817843
1.27e+09       0.636200346        0.770229041
1.28e+09       0.688824044        0.723804371
1.29e+09       0.736916014        0.674999304
1.3e+09       0.780540682        0.624233381
1.31e+09       0.819784766         0.57189207
1.32e+09       0.854753177        0.518328648
1.33e+09       0.885565509         0.46386607
1.34e+09       0.912353017        0.408798793
1.35e+09       0.935256026        0.353394554
1.36e+09       0.954421687        0.297896088
1.37e+09       0.970002062        0.242522771
1.38e+09       0.982152471        0.187472198
1.39e+09       0.991030073         0.13292169
1.4e+09       0.996792654       0.0790297196
1.41e+09       0.999597598       0.0259372708
1.42e+09        0.99960101      -0.0262308756
1.43e+09       0.996956975      -0.0773649286
1.44e+09       0.991816944       -0.127368941
1.45e+09       0.984329219        -0.17615973
1.46e+09       0.974638534       -0.223665864
1.47e+09       0.962885717       -0.269826713
1.48e+09       0.949207422        -0.31459155
1.49e+09       0.933735921       -0.357918726
1.5e+09       0.916598955        -0.39977488
1.51e+09       0.897919628       -0.440134218
1.52e+09       0.877816341       -0.478977831
1.53e+09       0.856402764       -0.516293065
1.54e+09       0.833787838       -0.552072933
1.55e+09       0.810075797        -0.58631557
1.56e+09       0.785366221       -0.619023728
1.57e+09       0.759754102       -0.650204306
1.58e+09       0.733329924       -0.679867918
1.59e+09       0.706179758       -0.708028492
1.6e+09       0.678385372       -0.734702903
1.61e+09       0.650024341       -0.759910629
1.62e+09       0.621170166       -0.783673437
1.63e+09       0.591892403         -0.8060151
1.64e+09       0.562256793       -0.826961126
1.65e+09       0.532325388        -0.84653852
1.66e+09       0.502156689       -0.864775558
1.67e+09       0.471805777       -0.881701587
1.68e+09       0.441324446       -0.897346838
1.69e+09       0.410761335       -0.911742254
1.7e+09       0.380162061       -0.924919342
1.71e+09       0.349569343       -0.936910027
1.72e+09       0.319023133       -0.947746532
1.73e+09       0.288560736       -0.957461255
1.74e+09       0.258216932       -0.966086673
1.75e+09       0.228024094       -0.973655243
1.76e+09       0.198012299       -0.980199324
1.77e+09       0.168209444       -0.985751097
1.78e+09       0.138641346       -0.990342501
1.79e+09       0.109331853       -0.994005171
1.8e+09      0.0803029361       -0.996770389
1.81e+09      0.0515747933       -0.998669035
1.82e+09      0.0231659361       -0.999731547
1.83e+09    -0.00490671857       -0.999987887
1.84e+09     -0.0326277638       -0.999467508
1.85e+09     -0.0599832204       -0.998199329
1.86e+09     -0.0869604589       -0.996211715
1.87e+09      -0.113548124       -0.993532454
1.88e+09      -0.139736062       -0.990188749
1.89e+09      -0.165515254       -0.986207197
1.9e+09      -0.190877748       -0.981613788
1.91e+09      -0.215816599       -0.976433892
1.92e+09      -0.240325806        -0.97069226
1.93e+09      -0.264400257       -0.964413017
1.94e+09      -0.288035675       -0.957619662
1.95e+09      -0.311228565       -0.950335073
1.96e+09      -0.333976168       -0.942581505
1.97e+09      -0.356276409       -0.934380596
1.98e+09      -0.378127859        -0.92575337
1.99e+09      -0.399529688       -0.916720247
2e+09      -0.420481626       -0.907301046